time,S(t),h(t)
0,8.02349119984579,8.02349119984579
1.90599252334028,8.01720366144294,8.01720366144294
75.419614016779,7.93332523368951,7.93332523368951
275.419614016779,7.39386508293289,7.70997401765682
475.419614016779,7.1553280506092,7.57979666378094
675.419614016779,6.96419040787639,7.48033341340106
875.419614016779,6.81237116401719,7.39671136158219
1075.41961401678,6.67141494541453,7.32317776664602
1275.41961401678,6.55288090743774,7.25678948774944
1475.41961401678,6.4402431431274,7.19580239455576
1675.41961401678,6.33236638795057,7.13908273726107
1875.41961401678,6.23554334026961,7.08584470485183
2075.41961401678,6.14200656845963,7.0355172605494
2275.41961401678,6.05132227087093,6.98767005874241
2475.41961401678,5.97009357358572,6.9419692716113
2675.41961401678,5.88412069736653,6.89814853149652
2875.41961401678,5.80702518157263,6.85599194990866
3075.41961401678,5.73168934444616,6.8153262121833
3275.41961401678,5.65796264161899,6.77600316361555
3475.41961401678,5.59245532120338,6.73789797735347
3675.41961401678,5.52154493064665,6.70090404204691
3875.41961401678,5.45191228396667,6.66492944250205
4075.41961401678,5.39010404234412,6.62989427102598
4275.41961401678,5.32934866045356,6.5957285401653
4475.41961401678,5.26302117312383,6.56237054005465
4675.41961401678,5.20422312727588,6.52976552983172
4875.41961401678,5.1463088294735,6.49786468367866
5075.41961401678,5.08923327172404,6.46662423344859
5275.41961401678,5.03295572611795,6.43600476485671
5475.41961401678,4.97743918330052,6.4059706348784
5675.41961401678,4.922649883001,6.37648948575259
5875.41961401678,4.86855691871546,6.3475318366564
6075.41961401678,4.81513190261442,6.31907073833914
6275.41961401678,4.76234867972805,6.29108147916519
6475.41961401678,4.71018308275138,6.26354133344598
6675.41961401678,4.66484914989008,6.23642934477283
6875.41961401678,4.61382652091805,6.20972613851688
7075.41961401678,4.56335935397352,6.18341375877171
7275.41961401678,4.51342956048866,6.1574755259054
7475.41961401678,4.47015211954799,6.13189591158847
7675.41961401678,4.42122215039207,6.10666042871833
7875.41961401678,4.37886398456146,6.08175553411314
8075.41961401678,4.33087550767751,6.05716854220631
8275.41961401678,4.28335015926895,6.03288754826613
8475.41961401678,4.24228436009011,6.008901359901
8675.41961401678,4.19562480449951,5.9851994358053
8875.41961401678,4.15535496610927,5.96177183085978
9075.41961401678,4.1095175296069,5.93860914683078
9275.41961401678,4.07000331175657,5.91570248801828
9475.41961401678,4.03084170016736,5.89304342129731
9675.41961401678,3.98615365530405,5.87062394006487
9875.41961401678,3.94769459137966,5.84843643167356
10001.4196140168,3.92083381598053,5.83457413092341
10075.4196140168,3.90373734414767,5.8264736479816
10275.4196140168,3.86594930000967,5.8047286786932
10475.4196140168,3.82847504180917,5.78319492720418
10675.4196140168,3.78554602027378,5.76186608869677
10875.4196140168,3.748700693058,5.74073613025728
11075.4196140168,3.71214972805792,5.71979927281652
11275.4196140168,3.67588723369941,5.69904997472777
11475.4196140168,3.63422906676867,5.67848291682605
11675.4196140168,3.59854714088903,5.65809298881923
11875.4196140168,3.56313717498868,5.63787527688082
12075.4196140168,3.52799413286497,5.61782505233275
12275.4196140168,3.49311316305391,5.59793776130434
12475.4196140168,3.45291138045985,5.57820901528247
12675.4196140168,3.41856026821314,5.5586345824604
12875.4196140168,3.3844575420678,5.53921037981636
13075.4196140168,3.35059900676812,5.51993246584533
13275.4196140168,3.31698061143759,5.50079703389318
13475.4196140168,3.28359844321065,5.4818004060278
13675.4196140168,3.25044872130429,5.46293902740218
13875.4196140168,3.21752779148968,5.44420946106545
14075.4196140168,3.18483212092526,5.42560838317762
14275.4196140168,3.15235829331897,5.40713257859172
14475.4196140168,3.12010300439111,5.3887789367722
14675.4196140168,3.0880630576072,5.37054444801253
14875.4196140168,3.05623536015996,5.35242619992988
15075.4196140168,3.02461691917419,5.33442137420492
15275.4196140168,2.99320483811587,5.31652724354506
15475.4196140168,2.96199631338606,5.29874116884805
15675.4196140168,2.9309886310812,5.28106059654269
15875.4196140168,2.90017916390607,5.26348305609087
16075.4196140168,2.86956536822235,5.24600615762769
16275.4196140168,2.84437340881156,5.22862758972714
16475.4196140168,2.81412636332813,5.21134511727432
16675.4196140168,2.7840679265753,5.19415657943153
16875.4196140168,2.75419586024877,5.17705988768566
17075.4196140168,2.72450799665066,5.16005302395959
17275.4196140168,2.6950022363226,5.14313403878359
17475.4196140168,2.66567654574695,5.12630104951337
17675.4196140168,2.64163850734809,5.10955223858431
17875.4196140168,2.61265044197116,5.09288585179564
18075.4196140168,2.58383680007982,5.07630019662047
18275.4196140168,2.55519578846755,5.05979364052979
18475.4196140168,2.52672566927672,5.04336460933476
18675.4196140168,2.50345176959441,5.02701158553093
18875.4196140168,2.47530215468719,5.01073310665424
19075.4196140168,2.447318604183,4.99452776363877
19275.4196140168,2.41949958080049,4.97839419917795
19475.4196140168,2.39680592423986,4.96233110608666
19675.4196140168,2.36929553109427,4.94633722566653
19875.4196140168,2.34194538938504,4.93041134607377
20075.4196140168,2.31475413362529,4.91455230069064
20275.4196140168,2.28772043735716,4.89875896650356
20475.4196140168,2.26572604179391,4.88303026248688
20675.4196140168,2.23898796807899,4.86736514799781
20875.4196140168,2.21240375525961,4.85176262118335
21075.4196140168,2.18597221626607,4.83622171740281
21275.4196140168,2.15969219543564,4.82074150766884
21475.4196140168,2.13356256711524,4.80532109710639
21675.4196140168,2.11237219393742,4.78995962344085
21875.4196140168,2.08652478365718,4.77465625550842
22075.4196140168,2.06082461304919,4.75941019179952
22275.4196140168,2.03527066272581,4.74422065903453
22475.4196140168,2.00986193707824,4.72908691077232
22675.4196140168,1.98459746317125,4.71400822605997
22875.4196140168,1.95947628968687,4.69898390812198
23075.4196140168,1.93449748591685,4.68401328309164
23275.4196140168,1.91432923650127,4.66909569878358
23475.4196140168,1.88961759254882,4.65423052351927
23675.4196140168,1.86504569228725,4.63941714499316
23875.4196140168,1.84061267773743,4.62465496918952
24075.4196140168,1.81631770722373,4.60994341934956
24275.4196140168,1.79215995464513,4.59528193498751
24475.4196140168,1.76813860878917,4.5806699709564
24675.4196140168,1.74425287268795,4.56610699656531
24875.4196140168,1.72050196301322,4.55159249474397
25075.4196140168,1.69688510951162,4.53712596126102
25275.4196140168,1.67340155447552,4.52270690398789
25475.4196140168,1.65005055224879,4.50833484220981
25675.4196140168,1.62683136876732,4.49400930598706
25875.4196140168,1.60374328113035,4.47972983555965
26075.4196140168,1.58078557720079,4.46549598079319
26275.4196140168,1.55795755523535,4.45130730067243
26475.4196140168,1.53525852353906,4.43716336282966
26675.4196140168,1.50826473640154,4.42306374311303
26875.4196140168,1.48583570448963,4.40900802519177
27075.4196140168,1.46353360146534,4.39499580019621
27275.4196140168,1.44135777324104,4.38102666638613
27475.4196140168,1.41930757437557,4.36710022884792
27675.4196140168,1.3973823678511,4.35321609922462
27875.4196140168,1.37124215096711,4.33937389546553
28075.4196140168,1.34957885137884,4.32557324159884
28275.4196140168,1.32803864039758,4.31181376752459
28475.4196140168,1.30662091308425,4.29809510882978
28675.4196140168,1.28532507198412,4.28441690661372
28875.4196140168,1.25987974816283,4.27077880733162
29075.4196140168,1.23883951463113,4.25718046264995
29275.4196140168,1.2179193789127,4.24362152931256
29475.4196140168,1.19288867066296,4.23010166901757
29675.4196140168,1.17222051242706,4.21662054829879
29875.4196140168,1.15167072772732,4.20317783842087
30075.4196140168,1.12704899490903,4.18977321527521
30275.4196140168,1.10674768520984,4.17640635928241
30475.4196140168,1.08656308533343,4.16307695530049
30675.4196140168,1.06234488128929,4.14978469253629
30875.4196140168,1.04240537464368,4.13652926445906
31075.4196140168,1.01845766107398,4.12331036872057
31275.4196140168,0.998761032818768,4.11012770707312
31475.4196140168,0.975081474499786,4.09698098529322
31675.4196140168,0.95562555966685,4.0838699131062
31875.4196140168,0.932211872741737,4.07079420411239
32075.4196140168,0.912994554536198,4.05775357571643
32275.4196140168,0.889844504792125,4.04474774905511
32475.4196140168,0.870863712968231,4.03177644892699
32675.4196140168,0.847975114185634,4.01883940372338
32875.4196140168,0.829228823489582,4.0059363453603
33075.4196140168,0.806599535858035,3.99306700919819
33275.4196140168,0.784105533392239,3.98023113397075
33475.4196140168,0.765713693106992,3.96742846169426
33675.4196140168,0.743475842661159,3.95465873755936
33875.4196140168,0.725313594604075,3.94192170980476
34075.4196140168,0.703329866185736,3.92921712952925
34275.4196140168,0.681478786574842,3.91654475043012
34475.4196140168,0.659759831501467,3.90390432841104
34675.4196140168,0.642063777458388,3.89129562095993
34875.4196140168,0.620594941786961,3.87871838616851
35075.4196140168,0.59925671907869,3.86617238115284
35275.4196140168,0.578048603923338,3.85365735948892
35475.4196140168,0.556970094719915,3.84117306703389
35675.4196140168,0.539849412149327,3.82871923510161
35875.4196140168,0.519016197427817,3.81629556932219
36075.4196140168,0.49831112681608,3.80390173142046
36275.4196140168,0.477733700991913,3.79153730945963
36475.4196140168,0.457283414074436,3.77920176921021
36675.4196140168,0.436959747466644,3.76689437471245
36875.4196140168,0.416762160488615,3.75461405845599
37075.4196140168,0.396690076155977,3.74235920901865
37275.4196140168,0.376742859562163,3.73012732239765
37475.4196140168,0.356919784949715,3.71791442655953
37675.4196140168,0.337219985242478,3.70571412354371
37875.4196140168,0.313948857523304,3.6935159708624
38075.4196140168,0.294504214301203,3.68130267876503
38275.4196140168,0.271509334740563,3.66904506406166
38475.4196140168,0.248655082629981,3.65669239161737
38675.4196140168,0.218649123563863,3.64415205939771
38875.4196140168,0.167037012141688,3.63123939438452
39075.4196140168,0,3.6175376652696
39275.4196140168,0,3.60205949956431
39475.4196140168,0,3.58379911203157
39675.4196140168,0,3.56367564794151
39875.4196140168,0,3.54349010437334
40075.4196140168,0,3.52445384708236
40275.4196140168,0,3.50713554979159
40475.4196140168,0,3.49172414659063
40675.4196140168,0,3.47821605516788
40875.4196140168,0,3.46651308510529
41075.4196140168,0,3.45647053413442
41275.4196140168,0,3.44792249894653
41475.4196140168,0,3.44069694309047
41675.4196140168,0,3.4346254087847
41875.4196140168,0,3.42954925566237
42075.4196140168,0,3.42532335097648
42275.4196140168,0,3.42181785857965
42475.4196140168,0,3.41891866293382
42501.4196140168,0,3.41858097690319
